nm; A
800,000000; 0,297761
799,000000; 0,297921
798,000000; 0,298127
797,000000; 0,298303
796,000000; 0,298466
795,000000; 0,298710
794,000000; 0,298912
793,000000; 0,299049
792,000000; 0,299218
791,000000; 0,299448
790,000000; 0,299706
789,000000; 0,299871
788,000000; 0,300052
787,000000; 0,300265
786,000000; 0,300508
785,000000; 0,300762
784,000000; 0,300979
783,000000; 0,301202
782,000000; 0,301426
781,000000; 0,301659
780,000000; 0,301906
779,000000; 0,302152
778,000000; 0,302419
777,000000; 0,302666
776,000000; 0,302912
775,000000; 0,303191
774,000000; 0,303472
773,000000; 0,303679
772,000000; 0,303931
771,000000; 0,304217
770,000000; 0,304482
769,000000; 0,304744
768,000000; 0,305022
767,000000; 0,305305
766,000000; 0,305598
765,000000; 0,305899
764,000000; 0,306158
763,000000; 0,306492
762,000000; 0,306776
761,000000; 0,307048
760,000000; 0,307371
759,000000; 0,307693
758,000000; 0,307983
757,000000; 0,308277
756,000000; 0,308599
755,000000; 0,308957
754,000000; 0,309314
753,000000; 0,309625
752,000000; 0,309985
751,000000; 0,310345
750,000000; 0,310660
749,000000; 0,310980
748,000000; 0,311362
747,000000; 0,311786
746,000000; 0,312173
745,000000; 0,312500
744,000000; 0,312924
743,000000; 0,313324
742,000000; 0,313718
741,000000; 0,314135
740,000000; 0,314574
739,000000; 0,314974
738,000000; 0,315425
737,000000; 0,315878
736,000000; 0,316327
735,000000; 0,316776
734,000000; 0,317238
733,000000; 0,317760
732,000000; 0,318272
731,000000; 0,318790
730,000000; 0,319328
729,000000; 0,319892
728,000000; 0,320408
727,000000; 0,320958
726,000000; 0,321544
725,000000; 0,322131
724,000000; 0,322672
723,000000; 0,323224
722,000000; 0,323760
721,000000; 0,324296
720,000000; 0,324849
719,000000; 0,325421
718,000000; 0,325948
717,000000; 0,326442
716,000000; 0,326966
715,000000; 0,327488
714,000000; 0,327958
713,000000; 0,328357
712,000000; 0,328815
711,000000; 0,329226
710,000000; 0,329626
709,000000; 0,330032
708,000000; 0,330344
707,000000; 0,330675
706,000000; 0,331004
705,000000; 0,331308
704,000000; 0,331581
703,000000; 0,331847
702,000000; 0,332108
701,000000; 0,332333
700,000000; 0,332565
699,000000; 0,332800
698,000000; 0,332966
697,000000; 0,333158
696,000000; 0,333380
695,000000; 0,333567
694,000000; 0,333707
693,000000; 0,333835
692,000000; 0,333978
691,000000; 0,334083
690,000000; 0,334185
689,000000; 0,334296
688,000000; 0,334418
687,000000; 0,334539
686,000000; 0,334620
685,000000; 0,334676
684,000000; 0,334736
683,000000; 0,334821
682,000000; 0,334866
681,000000; 0,334967
680,000000; 0,335036
679,000000; 0,335072
678,000000; 0,335096
677,000000; 0,335137
676,000000; 0,335179
675,000000; 0,335208
674,000000; 0,335228
673,000000; 0,335253
672,000000; 0,335315
671,000000; 0,335298
670,000000; 0,335332
669,000000; 0,335364
668,000000; 0,335356
667,000000; 0,335352
666,000000; 0,335366
665,000000; 0,335387
664,000000; 0,335415
663,000000; 0,335454
662,000000; 0,335511
661,000000; 0,335590
660,000000; 0,335679
659,000000; 0,335780
658,000000; 0,335895
657,000000; 0,336034
656,000000; 0,336107
655,000000; 0,336219
654,000000; 0,336344
653,000000; 0,336457
652,000000; 0,336548
651,000000; 0,336702
650,000000; 0,336839
649,000000; 0,336956
648,000000; 0,337061
647,000000; 0,337197
646,000000; 0,337347
645,000000; 0,337479
644,000000; 0,337604
643,000000; 0,337744
642,000000; 0,337910
641,000000; 0,338061
640,000000; 0,338201
639,000000; 0,338368
638,000000; 0,338585
637,000000; 0,338713
636,000000; 0,338855
635,000000; 0,339016
634,000000; 0,339169
633,000000; 0,339305
632,000000; 0,339495
631,000000; 0,339622
630,000000; 0,339771
629,000000; 0,339941
628,000000; 0,340098
627,000000; 0,340171
626,000000; 0,340343
625,000000; 0,340497
624,000000; 0,340624
623,000000; 0,340743
622,000000; 0,340904
621,000000; 0,341011
620,000000; 0,341109
619,000000; 0,341219
618,000000; 0,341325
617,000000; 0,341371
616,000000; 0,341505
615,000000; 0,341577
614,000000; 0,341658
613,000000; 0,341738
612,000000; 0,341740
611,000000; 0,341812
610,000000; 0,341896
609,000000; 0,341971
608,000000; 0,342006
607,000000; 0,341983
606,000000; 0,342033
605,000000; 0,342048
604,000000; 0,342035
603,000000; 0,342030
602,000000; 0,342059
601,000000; 0,341995
600,000000; 0,341976
599,000000; 0,341954
598,000000; 0,341934
597,000000; 0,341919
596,000000; 0,341840
595,000000; 0,341788
594,000000; 0,341761
593,000000; 0,341732
592,000000; 0,341675
591,000000; 0,341588
590,000000; 0,341525
589,000000; 0,341463
588,000000; 0,341396
587,000000; 0,341319
586,000000; 0,341227
585,000000; 0,341147
584,000000; 0,341064
583,000000; 0,340970
582,000000; 0,340869
581,000000; 0,340775
580,000000; 0,340631
579,000000; 0,340464
578,000000; 0,340351
577,000000; 0,340278
576,000000; 0,340134
575,000000; 0,340043
574,000000; 0,339897
573,000000; 0,339737
572,000000; 0,339587
571,000000; 0,339454
570,000000; 0,339308
569,000000; 0,339116
568,000000; 0,338945
567,000000; 0,338789
566,000000; 0,338611
565,000000; 0,338437
564,000000; 0,338322
563,000000; 0,338156
562,000000; 0,337969
561,000000; 0,337814
560,000000; 0,337573
559,000000; 0,337386
558,000000; 0,337226
557,000000; 0,337050
556,000000; 0,336846
555,000000; 0,336720
554,000000; 0,336519
553,000000; 0,336333
552,000000; 0,336151
551,000000; 0,335962
550,000000; 0,335794
549,000000; 0,335604
548,000000; 0,335431
547,000000; 0,335266
546,000000; 0,335102
545,000000; 0,334953
544,000000; 0,334822
543,000000; 0,334662
542,000000; 0,334501
541,000000; 0,334341
540,000000; 0,334159
539,000000; 0,334049
538,000000; 0,333927
537,000000; 0,333770
536,000000; 0,333615
535,000000; 0,333537
534,000000; 0,333414
533,000000; 0,333352
532,000000; 0,333211
531,000000; 0,333020
530,000000; 0,332956
529,000000; 0,332864
528,000000; 0,332774
527,000000; 0,332689
526,000000; 0,332596
525,000000; 0,332458
524,000000; 0,332389
523,000000; 0,332309
522,000000; 0,332206
521,000000; 0,332096
520,000000; 0,332023
519,000000; 0,331982
518,000000; 0,331916
517,000000; 0,331827
516,000000; 0,331726
515,000000; 0,331630
514,000000; 0,331545
513,000000; 0,331467
512,000000; 0,331381
511,000000; 0,331290
510,000000; 0,331223
509,000000; 0,331102
508,000000; 0,330910
507,000000; 0,330753
506,000000; 0,330658
505,000000; 0,330537
504,000000; 0,330326
503,000000; 0,330106
502,000000; 0,329911
501,000000; 0,329737
500,000000; 0,329516
499,000000; 0,329211
498,000000; 0,328943
497,000000; 0,328665
496,000000; 0,328350
495,000000; 0,328019
494,000000; 0,327584
493,000000; 0,327164
492,000000; 0,326733
491,000000; 0,326250
490,000000; 0,325649
489,000000; 0,325187
488,000000; 0,324666
487,000000; 0,324116
486,000000; 0,323544
485,000000; 0,322896
484,000000; 0,322162
483,000000; 0,321470
482,000000; 0,320737
481,000000; 0,319991
480,000000; 0,319312
479,000000; 0,318546
478,000000; 0,317835
477,000000; 0,317057
476,000000; 0,316253
475,000000; 0,315470
474,000000; 0,314707
473,000000; 0,313915
472,000000; 0,313202
471,000000; 0,312507
470,000000; 0,311858
469,000000; 0,311288
468,000000; 0,310705
467,000000; 0,310154
466,000000; 0,309707
465,000000; 0,309338
464,000000; 0,308999
463,000000; 0,308687
462,000000; 0,308491
461,000000; 0,308418
460,000000; 0,308463
459,000000; 0,308556
458,000000; 0,308681
457,000000; 0,308984
456,000000; 0,309450
455,000000; 0,309887
454,000000; 0,310434
453,000000; 0,311066
452,000000; 0,311790
451,000000; 0,312639
450,000000; 0,313562
449,000000; 0,314579
448,000000; 0,315600
447,000000; 0,316656
446,000000; 0,317805
445,000000; 0,318896
444,000000; 0,320110
443,000000; 0,321235
442,000000; 0,322376
441,000000; 0,323634
440,000000; 0,324693
439,000000; 0,325843
438,000000; 0,326971
437,000000; 0,328003
436,000000; 0,328943
435,000000; 0,329948
434,000000; 0,330801
433,000000; 0,331699
432,000000; 0,332588
431,000000; 0,333468
430,000000; 0,334437
429,000000; 0,335092
428,000000; 0,335878
427,000000; 0,336599
426,000000; 0,337263
425,000000; 0,338038
424,000000; 0,338771
423,000000; 0,339587
422,000000; 0,340260
421,000000; 0,340888
420,000000; 0,341648
419,000000; 0,342128
418,000000; 0,342733
417,000000; 0,343241
416,000000; 0,343680
415,000000; 0,344126
414,000000; 0,344559
413,000000; 0,344713
412,000000; 0,344823
411,000000; 0,344908
410,000000; 0,344955
409,000000; 0,344957
408,000000; 0,345081
407,000000; 0,345036
406,000000; 0,344898
405,000000; 0,344783
404,000000; 0,344745
403,000000; 0,344814
402,000000; 0,344784
401,000000; 0,344682
400,000000; 0,344687
399,000000; 0,345290
398,000000; 0,345453
397,000000; 0,345698
396,000000; 0,345663
395,000000; 0,345408
394,000000; 0,346010
393,000000; 0,346308
392,000000; 0,346349
391,000000; 0,346582
390,000000; 0,347060
389,000000; 0,347135
388,000000; 0,347114
387,000000; 0,347426
386,000000; 0,347929
385,000000; 0,348474
384,000000; 0,348934
383,000000; 0,349303
382,000000; 0,349570
381,000000; 0,350048
380,000000; 0,350716
379,000000; 0,351272
378,000000; 0,351472
377,000000; 0,351903
376,000000; 0,352407
375,000000; 0,352889
374,000000; 0,353331
373,000000; 0,354071
372,000000; 0,354323
371,000000; 0,354915
370,000000; 0,355751
369,000000; 0,356595
368,000000; 0,357525
367,000000; 0,358407
366,000000; 0,359075
365,000000; 0,359588
364,000000; 0,360154
363,000000; 0,361195
362,000000; 0,362573
361,000000; 0,363380
360,000000; 0,363875
359,000000; 0,364262
358,000000; 0,364870
357,000000; 0,366318
356,000000; 0,368048
355,000000; 0,369657
354,000000; 0,370805
353,000000; 0,372858
352,000000; 0,375382
351,000000; 0,377399
350,000000; 0,370011
349,000000; 0,365236
348,000000; 0,366294
347,000000; 0,367851
346,000000; 0,369388
345,000000; 0,370692
344,000000; 0,372361
343,000000; 0,373655
342,000000; 0,375322
341,000000; 0,376949
340,000000; 0,378400
339,000000; 0,379848
338,000000; 0,381720
337,000000; 0,382890
336,000000; 0,384456
335,000000; 0,386086
334,000000; 0,387546
333,000000; 0,388835
332,000000; 0,390355
331,000000; 0,391984
330,000000; 0,393897
329,000000; 0,395887
328,000000; 0,397717
327,000000; 0,399724
326,000000; 0,402531
325,000000; 0,405485
324,000000; 0,408537
323,000000; 0,411760
322,000000; 0,414859
321,000000; 0,418708
320,000000; 0,422663
319,000000; 0,426696
318,000000; 0,430950
317,000000; 0,435813
316,000000; 0,441262
315,000000; 0,446916
314,000000; 0,452833
313,000000; 0,459174
312,000000; 0,466060
311,000000; 0,473570
310,000000; 0,481457
309,000000; 0,489697
308,000000; 0,498642
307,000000; 0,508653
306,000000; 0,519065
305,000000; 0,530361
304,000000; 0,542368
303,000000; 0,554734
302,000000; 0,568371
301,000000; 0,582907
300,000000; 0,597952
299,000000; 0,613925
298,000000; 0,631532
297,000000; 0,650478
296,000000; 0,670176
295,000000; 0,690823
294,000000; 0,712588
293,000000; 0,735561
292,000000; 0,759973
291,000000; 0,786226
290,000000; 0,813877
289,000000; 0,842872
288,000000; 0,873367
287,000000; 0,904647
286,000000; 0,937169
285,000000; 0,971371
284,000000; 1,007304
283,000000; 1,044729
282,000000; 1,083554
281,000000; 1,123465
280,000000; 1,164926
279,000000; 1,208108
278,000000; 1,252782
277,000000; 1,298464
276,000000; 1,348269
275,000000; 1,398697
274,000000; 1,449263
273,000000; 1,503338
272,000000; 1,559688
271,000000; 1,616126
270,000000; 1,674040
269,000000; 1,733680
268,000000; 1,794524
267,000000; 1,858069
266,000000; 1,921292
265,000000; 1,986751
264,000000; 2,055141
263,000000; 2,125704
262,000000; 2,196266
261,000000; 2,268876
260,000000; 2,342315
259,000000; 2,420446
258,000000; 2,509507
257,000000; 2,580816
256,000000; 2,662332
255,000000; 2,756409
254,000000; 2,860758
253,000000; 2,965491
252,000000; 3,053177
251,000000; 3,159028
250,000000; 3,290297
249,000000; 3,470409
248,000000; 3,737668
247,000000; 4,000463
246,000000; 4,555661
245,000000; 5,008668
244,000000; 5,009336
243,000000; 5,012467
242,000000; 5,037571
241,000000; 5,045537
240,000000; 5,055603
239,000000; 5,065960
238,000000; 5,073562
237,000000; 5,074463
236,000000; 5,063232
235,000000; 5,055259
234,000000; 5,069764
233,000000; 5,061837
232,000000; 4,962238
231,000000; 4,804632
230,000000; 4,828320
229,000000; 5,035229
228,000000; 5,036888
227,000000; 5,073076
226,000000; 5,059646
225,000000; 5,042514
224,000000; 5,061980
223,000000; 5,082787
222,000000; 5,081116
221,000000; 5,043319
220,000000; 5,029522
219,000000; 4,996506
218,000000; 4,991381
217,000000; 4,992039
216,000000; 4,950511
215,000000; 4,974362
214,000000; 4,976551
213,000000; 4,966155
212,000000; 4,951322
211,000000; 4,937046
210,000000; 4,920270
209,000000; 4,894409
208,000000; 4,867281
207,000000; 4,861617
206,000000; 4,882399
205,000000; 4,860396
204,000000; 4,831769
203,000000; 4,812718
202,000000; 4,772957
201,000000; 4,716433
200,000000; 4,747080
